-0.5 	0 	0 	0
-0.5 	0 	0 	0
-0.496078 	2.78985e-05 	0.00015381 	-1.18939e-18
-0.492157 	8.27834e-05 	0.000363425 	-2.32185e-18
-0.488235 	7.1842e-05 	0.000285919 	-1.64958e-18
-0.484314 	0.00014807 	0.000494277 	-2.50645e-18
-0.480392 	0.000243391 	0.000750028 	-3.58515e-18
-0.476471 	0.000281541 	0.0008042 	-3.62156e-18
-0.472549 	0.000319191 	0.000848237 	-3.61735e-18
-0.468627 	0.000368713 	0.000914622 	-3.7401e-18
-0.464706 	0.000397141 	0.000922183 	-3.58286e-18
-0.460784 	0.000337164 	0.000734734 	-2.7491e-18
-0.456863 	9.11026e-05 	0.00018673 	-6.71351e-19
-0.452941 	0.000297571 	0.000609923 	-2.19286e-18
-0.44902 	0.000552524 	0.00106736 	-3.74689e-18
-0.445098 	0.000489088 	0.000892139 	-3.04911e-18
-0.441176 	8.63471e-05 	0.000157505 	-5.38312e-19
-0.437255 	0.000621324 	0.0010717 	-3.55942e-18
-0.433333 	0.000587138 	0.000959085 	-3.11416e-18
-0.429412 	0.000239138 	0.00039063 	-1.26838e-18
-0.42549 	0.000787229 	0.0012193 	-3.85735e-18
-0.421569 	0.000378684 	0.000556645 	-1.71842e-18
-0.417647 	0.000683272 	0.00100437 	-3.10059e-18
-0.413725 	0.000753854 	0.00105279 	-3.19804e-18
-0.409804 	0.00045421 	0.000634322 	-1.92688e-18
-0.405882 	0.000939339 	0.00124719 	-3.70831e-18
-0.401961 	0.000171177 	0.000227277 	-6.75772e-19
-0.398039 	0.00102564 	0.00129545 	-3.7475e-18
-0.394118 	3.30834e-05 	3.9773e-05 	-1.1262e-19
-0.390196 	0.0010917 	0.00131245 	-3.71629e-18
-0.386275 	0.00013182 	0.000150904 	-4.24485e-19
-0.382353 	0.00116146 	0.00132961 	-3.74012e-18
-0.378431 	0.000121934 	0.00013296 	-3.70887e-19
-0.37451 	0.00122897 	0.0013401 	-3.73817e-18
-0.370588 	6.57113e-05 	7.16532e-05 	-1.99874e-19
-0.366667 	0.00127209 	0.00132131 	-3.63316e-18
-0.362745 	0.000344792 	0.000358133 	-9.84747e-19
-0.358824 	0.00128221 	0.00126879 	-3.47344e-18
-0.354902 	0.000723157 	0.000715591 	-1.959e-18
-0.35098 	0.00119289 	0.00112464 	-3.04191e-18
-0.347059 	0.00109991 	0.00103699 	-2.80482e-18
-0.343137 	0.000894282 	0.000802994 	-2.16111e-18
-0.339216 	0.00137713 	0.00123655 	-3.32795e-18
-0.335294 	0.000284535 	0.000243274 	-6.46815e-19
-0.331373 	0.00152608 	0.00130478 	-3.46914e-18
-0.327451 	0.000536496 	0.000458698 	-1.21958e-18
-0.323529 	0.00141867 	0.00115461 	-3.05542e-18
-0.319608 	0.00121323 	0.00098741 	-2.61296e-18
-0.315686 	0.000881079 	0.000682189 	-1.81944e-18
-0.311765 	0.00161863 	0.00125325 	-3.34249e-18
-0.307843 	0.000153131 	0.000118564 	-3.16217e-19
-0.303922 	0.00160555 	0.00118183 	-3.1971e-18
-0.3 	0.00115387 	0.000849349 	-2.29768e-18
-0.296078 	0.00102729 	0.000718353 	-1.95216e-18
-0.292157 	0.00172801 	0.00120835 	-3.28376e-18
-0.288235 	0.000242249 	0.000169398 	-4.60349e-19
-0.284314 	0.00168132 	0.00111593 	-3.04479e-18
-0.280392 	0.00138834 	0.000921472 	-2.51421e-18
-0.276471 	0.000834342 	0.000524967 	-1.44795e-18
-0.272549 	0.00186326 	0.00117236 	-3.23358e-18
-0.268627 	0.000714442 	0.000449526 	-1.23987e-18
-0.264706 	0.00150898 	0.000899032 	-2.51389e-18
-0.260784 	0.00177408 	0.00105697 	-2.95553e-18
-0.256863 	0.000161843 	9.11694e-05 	-2.57622e-19
-0.252941 	0.00188444 	0.00106154 	-2.99966e-18
-0.24902 	0.00143562 	0.000808712 	-2.28522e-18
-0.245098 	0.000873698 	0.000464512 	-1.33295e-18
-0.241176 	0.00200692 	0.001067 	-3.06184e-18
-0.237255 	0.000987011 	0.000524756 	-1.50582e-18
-0.233333 	0.00140318 	0.000702826 	-2.06225e-18
-0.229412 	0.00201106 	0.0010073 	-2.95565e-18
-0.22549 	0.00048254 	0.000241695 	-7.09185e-19
-0.221569 	0.00174516 	0.000821616 	-2.46914e-18
-0.217647 	0.00189941 	0.000894238 	-2.68738e-18
-0.213725 	1.10996e-05 	4.89926e-06 	-1.51585e-20
-0.209804 	0.00195064 	0.000860997 	-2.66396e-18
-0.205882 	0.00175564 	0.000774923 	-2.39764e-18
-0.201961 	0.000469441 	0.000193696 	-6.18722e-19
-0.198039 	0.00209568 	0.000864701 	-2.76211e-18
-0.194118 	0.00160084 	0.000660524 	-2.10991e-18
-0.190196 	0.000790585 	0.000303915 	-1.0114e-18
-0.186275 	0.00218933 	0.000841617 	-2.80083e-18
-0.182353 	0.00148019 	0.000569012 	-1.89363e-18
-0.178431 	0.0010449 	0.000372774 	-1.29211e-18
-0.17451 	0.00225209 	0.000803447 	-2.7849e-18
-0.170588 	0.00136414 	0.000486665 	-1.68687e-18
-0.166667 	0.00118757 	0.000391362 	-1.42671e-18
-0.162745 	0.00228076 	0.000751621 	-2.74004e-18
-0.158824 	0.00129057 	0.000425304 	-1.55045e-18
-0.154902 	0.00128314 	0.00038852 	-1.49735e-18
-0.15098 	0.00231426 	0.000700728 	-2.7006e-18
-0.147059 	0.00127352 	0.000385607 	-1.48612e-18
-0.143137 	0.00133155 	0.000368099 	-1.50923e-18
-0.139216 	0.00233858 	0.000646484 	-2.65062e-18
-0.135294 	0.00128516 	0.000355273 	-1.45664e-18
-0.131373 	0.00131185 	0.000328502 	-1.44456e-18
-0.127451 	0.00233829 	0.000585534 	-2.57485e-18
-0.123529 	0.00131599 	0.000329539 	-1.44913e-18
-0.119608 	0.0012375 	0.000278083 	-1.32843e-18
-0.115686 	0.00234603 	0.000527184 	-2.51841e-18
-0.111765 	0.00141779 	0.000318596 	-1.52197e-18
-0.107843 	0.00115494 	0.000230185 	-1.2184e-18
-0.103922 	0.00235061 	0.000468486 	-2.47977e-18
-0.1 	0.00152186 	0.000303313 	-1.60548e-18
-0.0960784 	0.000995919 	0.00017341 	-1.0292e-18
-0.0921569 	0.00233303 	0.000406227 	-2.41098e-18
-0.0882353 	0.0016591 	0.000288883 	-1.71453e-18
-0.0843137 	0.000821206 	0.000122521 	-8.33292e-19
-0.0803922 	0.00231998 	0.000346134 	-2.35412e-18
-0.0764706 	0.0018217 	0.000271791 	-1.8485e-18
-0.072549 	0.000610603 	7.59845e-05 	-6.0691e-19
-0.0686275 	0.00226918 	0.000282381 	-2.25546e-18
-0.0647059 	0.00194463 	0.000241993 	-1.93287e-18
-0.0607843 	0.00030339 	3.0288e-05 	-2.96184e-19
-0.0568627 	0.002178 	0.000217434 	-2.12627e-18
-0.0529412 	0.00208553 	0.000208203 	-2.036e-18
-0.0490196 	3.11265e-05 	3.10742e-06 	-3.03872e-20
-0.045098 	0.00208091 	0.000156911 	-2.00531e-18
-0.0411765 	0.00219694 	0.000165661 	-2.11713e-18
-0.0372549 	0.000366131 	2.76082e-05 	-3.5283e-19
-0.0333333 	0.00191202 	9.75381e-05 	-1.81796e-18
-0.0294118 	0.00225292 	0.000114929 	-2.14209e-18
-0.0254902 	0.000663056 	3.38245e-05 	-6.30437e-19
-0.0215686 	0.0017081 	4.56527e-05 	-1.60687e-18
-0.0176471 	0.00230913 	6.17164e-05 	-2.17228e-18
-0.0137255 	0.000997908 	2.66712e-05 	-9.38767e-19
-0.00980392 	0.00150934 	3.76407e-06 	-1.40618e-18
-0.00588235 	0.00232588 	5.80038e-06 	-2.1669e-18
-0.00196078 	0.00124864 	3.11392e-06 	-1.16329e-18
0.00196078 	0.00123481 	-2.68098e-05 	-1.14354e-18
0.00588235 	0.00230008 	-4.99387e-05 	-2.13007e-18
0.00980392 	0.0014926 	-3.24069e-05 	-1.38228e-18
0.0137255 	0.000966243 	-4.43793e-05 	-8.89854e-19
0.0176471 	0.00223589 	-0.000102694 	-2.05913e-18
0.0215686 	0.00165402 	-7.59689e-05 	-1.52326e-18
0.0254902 	0.000627929 	-4.40771e-05 	-5.76893e-19
0.0294118 	0.0021327 	-0.000149704 	-1.95936e-18
0.0333333 	0.00181004 	-0.000127055 	-1.66293e-18
0.0372549 	0.000339304 	-3.2047e-05 	-3.10673e-19
0.0411765 	0.00203341 	-0.000192054 	-1.86183e-18
0.045098 	0.00192587 	-0.000181897 	-1.76336e-18
0.0490196 	2.81557e-05 	-3.34531e-06 	-2.58299e-20
0.0529412 	0.00188665 	-0.000224161 	-1.7308e-18
0.0568627 	0.00197049 	-0.000234123 	-1.80772e-18
0.0607843 	0.000275035 	-3.26782e-05 	-2.52316e-19
0.0647059 	0.00171665 	-0.000245934 	-1.5843e-18
0.0686275 	0.00200303 	-0.000286962 	-1.84859e-18
0.072549 	0.000539533 	-7.72959e-05 	-4.97936e-19
0.0764706 	0.00156878 	-0.000263225 	-1.45819e-18
0.0803922 	0.00199765 	-0.000335185 	-1.85683e-18
0.0843137 	0.000707668 	-0.000118739 	-6.57783e-19
0.0882353 	0.00139121 	-0.00026778 	-1.30612e-18
0.0921569 	0.00195593 	-0.000376477 	-1.8363e-18
0.0960784 	0.000835499 	-0.000160817 	-7.84399e-19
0.1 	0.00123974 	-0.000269353 	-1.17777e-18
0.103922 	0.00191405 	-0.000415858 	-1.81837e-18
0.107843 	0.000940352 	-0.000204306 	-8.93344e-19
0.111765 	0.00111902 	-0.000271013 	-1.08968e-18
0.115686 	0.00185166 	-0.000448448 	-1.80311e-18
0.119608 	0.000976727 	-0.00023655 	-9.51115e-19
0.123529 	0.00100408 	-0.000268322 	-1.00765e-18
0.127451 	0.00178407 	-0.000476763 	-1.79042e-18
0.131373 	0.00100092 	-0.000267478 	-1.00448e-18
0.135294 	0.000944395 	-0.000276077 	-9.80788e-19
0.139216 	0.0017185 	-0.000502372 	-1.78472e-18
0.143137 	0.00097849 	-0.000286044 	-1.0162e-18
0.147059 	0.000897357 	-0.000284895 	-9.62188e-19
0.15098 	0.00163069 	-0.000517715 	-1.7485e-18
0.154902 	0.000904136 	-0.000287048 	-9.69458e-19
0.158824 	0.000866834 	-0.000296989 	-9.71267e-19
0.162745 	0.00153192 	-0.000524856 	-1.71648e-18
0.166667 	0.000797656 	-0.000273288 	-8.93754e-19
0.170588 	0.000869348 	-0.000319492 	-1.02935e-18
0.17451 	0.00143814 	-0.000528526 	-1.70281e-18
0.178431 	0.000675507 	-0.000248254 	-7.9983e-19
0.182353 	0.00089153 	-0.000349476 	-1.12201e-18
0.186275 	0.00130923 	-0.000513213 	-1.6477e-18
0.190196 	0.000471992 	-0.000185019 	-5.94013e-19
0.194118 	0.000880727 	-0.000366161 	-1.20838e-18
0.198039 	0.00115297 	-0.000479346 	-1.5819e-18
0.201961 	0.00025827 	-0.000107375 	-3.54352e-19
0.205882 	0.00087745 	-0.000384468 	-1.33312e-18
0.209804 	0.000974913 	-0.000427173 	-1.48119e-18
0.213725 	5.54747e-06 	-2.43071e-06 	-8.42831e-21
0.217647 	0.000840728 	-0.000385313 	-1.47894e-18
0.221569 	0.000772452 	-0.000354021 	-1.35883e-18
0.22549 	0.000182732 	-8.6719e-05 	-3.79115e-19
0.229412 	0.000761567 	-0.000361416 	-1.58002e-18
0.233333 	0.000531369 	-0.000252171 	-1.10243e-18
0.237255 	0.000305156 	-0.000147662 	-7.8204e-19
0.241176 	0.000623592 	-0.000301751 	-1.59811e-18
0.245098 	0.000280903 	-0.000135926 	-7.19885e-19
0.24902 	0.000337572 	-0.000161552 	-1.17289e-18
0.252941 	0.000436795 	-0.000209037 	-1.51764e-18
0.256863 	3.7352e-05 	-1.78756e-05 	-1.29779e-19
0.260784 	0.000262145 	-0.000114534 	-1.45979e-18
0.264706 	0.000222973 	-9.74197e-05 	-1.24166e-18
0.268627 	4.56792e-05 	-1.31915e-05 	-3.52768e-19
0.272549 	0.000119131 	-3.44034e-05 	-9.20016e-19
0.276471 	5.33453e-05 	-1.54054e-05 	-4.11971e-19
0.280392 	-2.20226e-06 	1.96394e-05 	-4.04334e-20
0.284314 	-2.667e-06 	2.37839e-05 	-4.89661e-20
0.288235 	-8.89977e-06 	7.60733e-06 	5.63483e-20
0.292157 	-6.34838e-05 	5.42646e-05 	4.01943e-19
0.296078 	-3.77405e-05 	3.22598e-05 	2.38951e-19
0.3 	-6.01174e-05 	4.76457e-05 	1.65698e-19
0.303922 	-8.36503e-05 	6.62965e-05 	2.3056e-19
0.307843 	-8.91655e-06 	7.21685e-06 	-1.90382e-20
0.311765 	-9.425e-05 	7.62838e-05 	-2.01239e-19
0.315686 	-5.13038e-05 	4.15241e-05 	-1.09542e-19
0.319608 	-7.29739e-05 	6.14216e-05 	6.00797e-20
0.323529 	-8.53306e-05 	7.18222e-05 	7.0253e-20
0.327451 	-3.23702e-05 	2.85516e-05 	5.1626e-20
0.331373 	-9.24871e-05 	8.15768e-05 	1.47505e-19
0.335294 	-1.86188e-05 	1.64224e-05 	2.96945e-20
0.339216 	-8.18695e-05 	7.60622e-05 	-4.28208e-20
0.343137 	-5.18531e-05 	4.8175e-05 	-2.71211e-20
0.347059 	-6.31018e-05 	6.20098e-05 	1.2963e-19
0.35098 	-6.92315e-05 	6.80334e-05 	1.42223e-19
0.354902 	-4.22137e-05 	4.39863e-05 	-3.49134e-20
0.358824 	-7.4848e-05 	7.79908e-05 	-6.19039e-20
0.362745 	-2.04261e-05 	2.2607e-05 	-5.26362e-20
0.366667 	-7.53609e-05 	8.3407e-05 	-1.94198e-19
0.370588 	-4.03391e-06 	4.74319e-06 	-1.17614e-20
0.37451 	-7.54444e-05 	8.87098e-05 	-2.19969e-19
0.378431 	-7.48532e-06 	8.80146e-06 	-2.18245e-20
0.382353 	-7.53919e-05 	9.41087e-05 	-6.85746e-19
0.386275 	-8.55659e-06 	1.06809e-05 	-7.78287e-20
0.390196 	-7.62036e-05 	0.000100851 	-2.96738e-19
0.394118 	-2.30931e-06 	3.05624e-06 	-8.99249e-21
0.398039 	-7.80667e-05 	0.00010937 	1.70633e-19
0.401961 	-1.43452e-05 	2.12402e-05 	4.75626e-20
0.405882 	-7.87197e-05 	0.000116556 	2.61001e-19
0.409804 	-4.2187e-05 	6.59265e-05 	1.07913e-19
0.413725 	-7.00179e-05 	0.000109419 	1.79104e-19
0.417647 	-7.04461e-05 	0.000116136 	1.51426e-19
0.421569 	-3.90428e-05 	6.43654e-05 	8.39234e-20
0.42549 	-9.00324e-05 	0.000156582 	2.70467e-19
0.429412 	-3.04685e-05 	5.59315e-05 	8.20664e-20
0.433333 	-7.58799e-05 	0.000139294 	2.04381e-19
0.437255 	-8.81918e-05 	0.000171038 	3.04202e-19
0.441176 	-1.32433e-05 	2.71697e-05 	3.62349e-20
0.445098 	-7.50129e-05 	0.000153895 	2.05242e-19
0.44902 	-9.2578e-05 	0.000201223 	1.682e-19
0.452941 	-5.41143e-05 	0.000124863 	7.33549e-20
0.456863 	-1.65673e-05 	3.82272e-05 	2.24579e-20
0.460784 	-6.61876e-05 	0.000162465 	4.17227e-20
0.464706 	-8.35817e-05 	0.00021881 	7.53503e-20
0.468627 	-8.26971e-05 	0.00023152 	3.78478e-20
0.472549 	-7.58097e-05 	0.000227754 	3.37462e-20
0.476471 	-7.03597e-05 	0.000227589 	8.50323e-20
0.480392 	-6.35802e-05 	0.000222303 	5.3901e-21
0.484314 	-4.01627e-05 	0.000152412 	-2.87331e-20
0.488235 	-2.05907e-05 	9.32197e-05 	-3.32785e-20
0.492157 	-2.41058e-05 	0.000119839 	-2.70601e-20
0.496078 	-8.27065e-06 	4.92956e-05 	-1.51246e-20
0.5 	0 	0 	0
