-2 	0.99904 	0.999223
-1.98 	0.99904 	0.99921
-1.96 	0.999039 	0.999197
-1.94 	0.999028 	0.999184
-1.92 	0.999022 	0.999171
-1.9 	0.999008 	0.999157
-1.88 	0.998984 	0.999143
-1.86 	0.998943 	0.999129
-1.84 	0.998926 	0.999115
-1.82 	0.998917 	0.9991
-1.8 	0.998904 	0.999085
-1.78 	0.998892 	0.99907
-1.76 	0.998885 	0.999055
-1.74 	0.998883 	0.999039
-1.72 	0.998892 	0.999023
-1.7 	0.99887 	0.999006
-1.68 	0.998835 	0.99899
-1.66 	0.998782 	0.998973
-1.64 	0.998744 	0.998957
-1.62 	0.998735 	0.998939
-1.6 	0.99876 	0.998922
-1.58 	0.998778 	0.998904
-1.56 	0.998725 	0.998886
-1.54 	0.998699 	0.998868
-1.52 	0.998666 	0.998849
-1.5 	0.998669 	0.99883
-1.48 	0.998643 	0.998812
-1.46 	0.998612 	0.998793
-1.44 	0.998598 	0.998773
-1.42 	0.998572 	0.998753
-1.4 	0.998551 	0.998733
-1.38 	0.998534 	0.998714
-1.36 	0.998509 	0.998694
-1.34 	0.998489 	0.998673
-1.32 	0.998476 	0.998653
-1.3 	0.998466 	0.998633
-1.28 	0.998448 	0.998612
-1.26 	0.998393 	0.998591
-1.24 	0.998347 	0.99857
-1.22 	0.998317 	0.998549
-1.2 	0.998292 	0.998529
-1.18 	0.998327 	0.998508
-1.16 	0.998329 	0.998487
-1.14 	0.998277 	0.998467
-1.12 	0.99822 	0.998446
-1.1 	0.998187 	0.998427
-1.08 	0.998151 	0.998406
-1.06 	0.998149 	0.998387
-1.04 	0.998158 	0.998368
-1.02 	0.998166 	0.998349
-1 	0.998154 	0.99833
-0.98 	0.998159 	0.998312
-0.96 	0.998125 	0.998295
-0.94 	0.998097 	0.998278
-0.92 	0.998064 	0.998261
-0.9 	0.99805 	0.998246
-0.88 	0.998047 	0.998232
-0.86 	0.998048 	0.998218
-0.84 	0.998029 	0.998205
-0.82 	0.998016 	0.998193
-0.8 	0.998007 	0.998183
-0.78 	0.997995 	0.998174
-0.76 	0.997997 	0.998165
-0.74 	0.997992 	0.998157
-0.72 	0.997996 	0.99815
-0.7 	0.998003 	0.998144
-0.68 	0.998009 	0.998138
-0.66 	0.997984 	0.998133
-0.64 	0.997961 	0.998129
-0.62 	0.99795 	0.998126
-0.6 	0.997974 	0.998124
-0.58 	0.997991 	0.998122
-0.56 	0.997989 	0.99812
-0.54 	0.997971 	0.998118
-0.52 	0.997974 	0.998115
-0.5 	0.997989 	0.998112
-0.48 	0.997985 	0.998108
-0.46 	0.997964 	0.998101
-0.44 	0.997913 	0.998092
-0.42 	0.99783 	0.998073
-0.4 	0.997754 	0.99805
-0.3918 	0.997737 	0.998039
-0.3837 	0.997721 	0.998029
-0.3755 	0.99771 	0.998017
-0.3673 	0.997705 	0.997999
-0.3592 	0.997702 	0.997978
-0.351 	0.997697 	0.997954
-0.3429 	0.997688 	0.997928
-0.3347 	0.99768 	0.997901
-0.3265 	0.997675 	0.997876
-0.3184 	0.997671 	0.997853
-0.3102 	0.997667 	0.997829
-0.302 	0.997665 	0.997811
-0.2939 	0.997663 	0.997793
-0.2857 	0.997664 	0.997777
-0.2776 	0.997667 	0.997765
-0.2694 	0.997671 	0.997752
-0.2612 	0.997677 	0.997744
-0.2531 	0.997683 	0.997736
-0.2449 	0.997687 	0.997729
-0.2367 	0.997686 	0.997725
-0.2286 	0.997685 	0.997721
-0.2204 	0.997683 	0.997718
-0.2122 	0.99768 	0.997717
-0.2041 	0.997679 	0.997716
-0.1959 	0.99768 	0.997717
-0.1878 	0.997681 	0.997717
-0.1796 	0.997678 	0.997719
-0.1714 	0.997675 	0.997721
-0.1633 	0.997674 	0.997724
-0.1551 	0.997676 	0.997727
-0.1469 	0.997677 	0.99773
-0.1388 	0.997675 	0.997734
-0.1306 	0.997674 	0.997737
-0.1224 	0.997671 	0.997741
-0.1143 	0.997668 	0.997745
-0.1061 	0.997666 	0.997749
-0.098 	0.997665 	0.997753
-0.0898 	0.997664 	0.997757
-0.0816 	0.997663 	0.99776
-0.0735 	0.997663 	0.997763
-0.0653 	0.997662 	0.997766
-0.0571 	0.997662 	0.997769
-0.049 	0.997662 	0.997771
-0.0408 	0.997662 	0.997773
-0.0327 	0.997661 	0.997774
-0.0245 	0.997658 	0.997776
-0.0163 	0.997654 	0.997777
-0.0082 	0.99765 	0.997777
0 	0.997646 	0.997778
0.0082 	0.99764 	0.997778
0.0163 	0.997634 	0.997777
0.0245 	0.997628 	0.997776
0.0327 	0.997622 	0.997775
0.0408 	0.997617 	0.997774
0.049 	0.997612 	0.997772
0.0571 	0.997607 	0.99777
0.0653 	0.997604 	0.997768
0.0735 	0.997601 	0.997765
0.0816 	0.997597 	0.997762
0.0898 	0.997592 	0.997759
0.098 	0.997588 	0.997756
0.1061 	0.997585 	0.997752
0.1143 	0.997581 	0.997748
0.1224 	0.997576 	0.997745
0.1306 	0.997572 	0.997741
0.1388 	0.997565 	0.997737
0.1469 	0.997559 	0.997734
0.1551 	0.997557 	0.997731
0.1633 	0.997557 	0.997729
0.1714 	0.997555 	0.997726
0.1796 	0.997551 	0.997724
0.1878 	0.997547 	0.997723
0.1959 	0.99755 	0.997722
0.2041 	0.997552 	0.997722
0.2122 	0.997555 	0.997723
0.2204 	0.997559 	0.997725
0.2286 	0.997563 	0.997728
0.2367 	0.997568 	0.997732
0.2449 	0.997574 	0.997737
0.2531 	0.997585 	0.997744
0.2612 	0.997599 	0.997752
0.2694 	0.997614 	0.99776
0.2776 	0.997631 	0.997773
0.2857 	0.99765 	0.997786
0.2939 	0.997672 	0.997801
0.302 	0.997696 	0.997819
0.3102 	0.997721 	0.997837
0.3184 	0.997748 	0.99786
0.3265 	0.997776 	0.997884
0.3347 	0.997806 	0.997909
0.3429 	0.997837 	0.997936
0.351 	0.997865 	0.997964
0.3592 	0.997898 	0.997989
0.3673 	0.997927 	0.99801
0.3755 	0.99795 	0.99803
0.3837 	0.997955 	0.998043
0.3918 	0.997959 	0.998053
0.4 	0.997955 	0.998062
0.42 	0.997962 	0.998085
0.44 	0.997971 	0.998102
0.46 	0.997969 	0.998107
0.48 	0.997956 	0.998113
0.5 	0.997938 	0.998117
0.52 	0.997956 	0.99812
0.54 	0.997977 	0.998122
0.56 	0.997997 	0.998123
0.58 	0.997963 	0.998126
0.6 	0.997933 	0.998127
0.62 	0.997923 	0.998129
0.64 	0.99796 	0.998133
0.66 	0.997989 	0.998138
0.68 	0.998022 	0.998144
0.7 	0.997998 	0.998149
0.72 	0.997973 	0.998157
0.74 	0.99795 	0.998164
0.76 	0.997962 	0.998171
0.78 	0.998007 	0.998181
0.8 	0.998043 	0.99819
0.82 	0.998043 	0.998201
0.84 	0.998061 	0.998212
0.86 	0.998075 	0.998225
0.88 	0.998094 	0.998239
0.9 	0.998074 	0.998253
0.92 	0.99805 	0.998268
0.94 	0.998046 	0.998285
0.96 	0.998098 	0.998302
0.98 	0.998165 	0.998319
1 	0.99826 	0.998337
1.02 	0.998255 	0.998356
1.04 	0.998252 	0.998375
1.06 	0.998246 	0.998394
1.08 	0.998258 	0.998413
1.1 	0.998282 	0.998433
1.12 	0.9983 	0.998454
1.14 	0.998307 	0.998474
1.16 	0.998272 	0.998494
1.18 	0.998291 	0.998514
1.2 	0.998326 	0.998535
1.22 	0.998364 	0.998556
1.24 	0.998432 	0.998577
1.26 	0.998456 	0.998598
1.28 	0.998462 	0.998618
1.3 	0.998485 	0.998639
1.32 	0.998491 	0.998659
1.34 	0.998521 	0.99868
1.36 	0.998567 	0.9987
1.38 	0.998593 	0.99872
1.4 	0.998597 	0.998739
1.42 	0.998575 	0.998759
1.44 	0.998592 	0.998779
1.46 	0.998629 	0.998799
1.48 	0.998669 	0.998818
1.5 	0.998699 	0.998836
1.52 	0.998719 	0.998855
1.54 	0.998688 	0.998873
1.56 	0.998697 	0.998891
1.58 	0.998683 	0.99891
1.6 	0.998722 	0.998927
1.62 	0.998741 	0.998945
1.64 	0.998784 	0.998962
1.66 	0.998815 	0.998979
1.68 	0.998824 	0.998995
1.7 	0.998837 	0.999012
1.72 	0.998842 	0.999028
1.74 	0.998864 	0.999044
1.76 	0.998868 	0.999059
1.78 	0.998938 	0.999075
1.8 	0.998962 	0.999089
1.82 	0.998962 	0.999104
1.84 	0.998958 	0.999119
1.86 	0.99896 	0.999134
1.88 	0.998989 	0.999148
1.9 	0.999022 	0.999162
1.92 	0.999034 	0.999176
1.94 	0.999035 	0.999189
1.96 	0.999034 	0.999202
1.98 	0.999047 	0.999215
2 	0.999063 	0.999227
