-0.5 	0 	0 	0
-0.5 	0 	0 	0
-0.496078 	3.01911e-05 	0.000157925 	-8.16639e-19
-0.492157 	8.71726e-05 	0.00038018 	-1.44924e-18
-0.488235 	7.44587e-05 	0.000297784 	-9.8867e-19
-0.484314 	0.000150611 	0.000506314 	-1.41292e-18
-0.480392 	0.00024755 	0.000765223 	-1.96939e-18
-0.476471 	0.000286386 	0.000819351 	-1.91904e-18
-0.472549 	0.000324294 	0.000863045 	-1.87741e-18
-0.468627 	0.000374043 	0.000929414 	-1.90399e-18
-0.464706 	0.000402044 	0.000935314 	-1.7663e-18
-0.460784 	0.000340706 	0.000743975 	-1.33413e-18
-0.456863 	9.18201e-05 	0.00018876 	-3.17505e-19
-0.452941 	0.000299915 	0.000616552 	-1.03708e-18
-0.44902 	0.000555216 	0.00107648 	-1.77149e-18
-0.445098 	0.000490689 	0.000897477 	-1.41893e-18
-0.441176 	8.66298e-05 	0.000158447 	-2.50507e-19
-0.437255 	0.000623652 	0.00107668 	-1.63728e-18
-0.433333 	0.000589995 	0.000963572 	-1.41828e-18
-0.429412 	0.000240302 	0.000392457 	-5.77657e-19
-0.42549 	0.000791786 	0.00122578 	-1.72962e-18
-0.421569 	0.000381155 	0.000560072 	-7.5852e-19
-0.417647 	0.00068773 	0.00101055 	-1.36862e-18
-0.413725 	0.000759142 	0.00106005 	-1.40205e-18
-0.409804 	0.000457396 	0.0006387 	-8.44761e-19
-0.405882 	0.000946285 	0.00125656 	-1.59668e-18
-0.401961 	0.000172443 	0.000228986 	-2.90965e-19
-0.398039 	0.00103355 	0.00130595 	-1.57662e-18
-0.394118 	3.3347e-05 	4.01152e-05 	-4.63575e-20
-0.390196 	0.0011004 	0.00132374 	-1.52973e-18
-0.386275 	0.000132907 	0.000152277 	-1.75283e-19
-0.382353 	0.00117104 	0.00134171 	-1.54441e-18
-0.378431 	0.000122978 	0.000134235 	-1.51828e-19
-0.37451 	0.00123949 	0.00135295 	-1.53027e-18
-0.370588 	6.62738e-05 	7.23402e-05 	-8.18216e-20
-0.366667 	0.00128339 	0.00133461 	-1.46777e-18
-0.362745 	0.000347855 	0.000361739 	-3.97832e-19
-0.358824 	0.00129402 	0.00128218 	-1.39496e-18
-0.354902 	0.000729821 	0.00072314 	-7.86747e-19
-0.35098 	0.00120428 	0.00113705 	-1.20506e-18
-0.347059 	0.00111042 	0.00104842 	-1.11114e-18
-0.343137 	0.000903123 	0.000812225 	-8.45742e-19
-0.339216 	0.00139074 	0.00125077 	-1.30238e-18
-0.335294 	0.000287455 	0.000246191 	-2.48074e-19
-0.331373 	0.00154174 	0.00132042 	-1.33052e-18
-0.327451 	0.000542001 	0.000464197 	-4.67748e-19
-0.323529 	0.00143375 	0.00116903 	-1.15401e-18
-0.319608 	0.00122613 	0.00099974 	-9.86901e-19
-0.315686 	0.000890793 	0.000691059 	-6.90544e-19
-0.311765 	0.00163647 	0.00126954 	-1.2686e-18
-0.307843 	0.000154819 	0.000120105 	-1.20016e-19
-0.303922 	0.00162389 	0.00119781 	-1.22667e-18
-0.3 	0.00116705 	0.000860838 	-8.81575e-19
-0.296078 	0.00103948 	0.000728468 	-7.41769e-19
-0.292157 	0.00174852 	0.00122536 	-1.24774e-18
-0.288235 	0.000245124 	0.000171783 	-1.7492e-19
-0.284314 	0.00170208 	0.00113229 	-1.14449e-18
-0.280392 	0.00140548 	0.000934981 	-9.45059e-19
-0.276471 	0.00084507 	0.000532973 	-5.41268e-19
-0.272549 	0.00188722 	0.00119024 	-1.20876e-18
-0.268627 	0.000723628 	0.000456382 	-4.63484e-19
-0.264706 	0.00152917 	0.000913314 	-9.36598e-19
-0.260784 	0.00179781 	0.00107376 	-1.10114e-18
-0.256863 	0.000164094 	9.26817e-05 	-9.45501e-20
-0.252941 	0.00191065 	0.00107915 	-1.1009e-18
-0.24902 	0.00145559 	0.000822127 	-8.387e-19
-0.245098 	0.000886331 	0.00047256 	-4.84635e-19
-0.241176 	0.00203594 	0.00108549 	-1.11323e-18
-0.237255 	0.00100128 	0.000533848 	-5.47489e-19
-0.233333 	0.00142435 	0.000715564 	-7.46337e-19
-0.229412 	0.0020414 	0.00102556 	-1.06966e-18
-0.22549 	0.000489819 	0.000246075 	-2.56658e-19
-0.221569 	0.00177263 	0.000837201 	-8.87271e-19
-0.217647 	0.00192931 	0.000911201 	-9.65697e-19
-0.213725 	1.12823e-05 	4.99669e-06 	-5.42152e-21
-0.209804 	0.00198276 	0.000878119 	-9.52779e-19
-0.205882 	0.00178454 	0.000790333 	-8.57529e-19
-0.201961 	0.00047753 	0.000197739 	-2.197e-19
-0.198039 	0.0021318 	0.00088275 	-9.80789e-19
-0.194118 	0.00162843 	0.000674311 	-7.49201e-19
-0.190196 	0.000804871 	0.000310582 	-3.59589e-19
-0.186275 	0.00222889 	0.00086008 	-9.95792e-19
-0.182353 	0.00150694 	0.000581495 	-6.73249e-19
-0.178431 	0.0010647 	0.000381383 	-4.55299e-19
-0.17451 	0.00229477 	0.000822002 	-9.81315e-19
-0.170588 	0.00138999 	0.000497905 	-5.94403e-19
-0.166667 	0.00121123 	0.000400894 	-5.02058e-19
-0.162745 	0.0023262 	0.000769928 	-9.64216e-19
-0.158824 	0.00131627 	0.000435663 	-5.456e-19
-0.154902 	0.00131003 	0.000398518 	-5.2472e-19
-0.15098 	0.00236275 	0.000718762 	-9.46376e-19
-0.147059 	0.00130021 	0.00039553 	-5.20785e-19
-0.143137 	0.00136095 	0.000378122 	-5.25383e-19
-0.139216 	0.0023902 	0.000664086 	-9.22717e-19
-0.135294 	0.00131353 	0.000364947 	-5.07077e-19
-0.131373 	0.00134239 	0.000337995 	-4.9872e-19
-0.127451 	0.00239274 	0.000602456 	-8.88938e-19
-0.123529 	0.00134663 	0.000339062 	-5.00294e-19
-0.119608 	0.00126793 	0.000286629 	-4.56489e-19
-0.115686 	0.00240372 	0.000543385 	-8.65403e-19
-0.111765 	0.00145265 	0.000328387 	-5.22994e-19
-0.107843 	0.00118497 	0.000237732 	-4.2203e-19
-0.103922 	0.00241173 	0.000483847 	-8.58941e-19
-0.1 	0.00156143 	0.000313258 	-5.56105e-19
-0.0960784 	0.00102335 	0.0001795 	-3.56112e-19
-0.0921569 	0.00239729 	0.000420494 	-8.34222e-19
-0.0882353 	0.0017048 	0.000299029 	-5.93245e-19
-0.0843137 	0.000845194 	0.000127156 	-2.88715e-19
-0.0803922 	0.00238775 	0.000359226 	-8.15644e-19
-0.0764706 	0.00187491 	0.000282072 	-6.4046e-19
-0.072549 	0.000629552 	7.91005e-05 	-2.08876e-19
-0.0686275 	0.0023396 	0.000293961 	-7.76246e-19
-0.0647059 	0.00200498 	0.000251917 	-6.65222e-19
-0.0607843 	0.000313412 	3.16534e-05 	-1.01553e-19
-0.0568627 	0.00224995 	0.000227236 	-7.29038e-19
-0.0529412 	0.00215443 	0.000217589 	-6.98086e-19
-0.0490196 	3.21547e-05 	3.2475e-06 	-1.04189e-20
-0.045098 	0.0021541 	0.000164825 	-6.88576e-19
-0.0411765 	0.00227421 	0.000174016 	-7.26972e-19
-0.0372549 	0.000379008 	2.90006e-05 	-1.21153e-19
-0.0333333 	0.00198382 	0.000103307 	-6.23082e-19
-0.0294118 	0.00233752 	0.000121726 	-7.34174e-19
-0.0254902 	0.000687953 	3.58252e-05 	-2.16074e-19
-0.0215686 	0.00177662 	4.92635e-05 	-5.50315e-19
-0.0176471 	0.00240176 	6.65978e-05 	-7.43953e-19
-0.0137255 	0.00103794 	2.87807e-05 	-3.21505e-19
-0.00980392 	0.00157419 	5.39843e-06 	-4.80558e-19
-0.00588235 	0.00242581 	8.31891e-06 	-7.40533e-19
-0.00196078 	0.00130229 	4.46598e-06 	-3.97553e-19
0.00196078 	0.00129172 	-2.69345e-05 	-3.91004e-19
0.00588235 	0.00240608 	-5.01709e-05 	-7.28323e-19
0.00980392 	0.00156139 	-3.25575e-05 	-4.72633e-19
0.0137255 	0.00101412 	-4.57945e-05 	-3.03486e-19
0.0176471 	0.00234668 	-0.000105969 	-7.02269e-19
0.0215686 	0.00173598 	-7.83915e-05 	-5.19511e-19
0.0254902 	0.000661476 	-4.59863e-05 	-1.9652e-19
0.0294118 	0.00224664 	-0.000156188 	-6.67459e-19
0.0333333 	0.00190674 	-0.000132558 	-5.6648e-19
0.0372549 	0.00035889 	-3.3697e-05 	-1.04995e-19
0.0411765 	0.00215078 	-0.000201942 	-6.29219e-19
0.045098 	0.00203703 	-0.000191262 	-5.95942e-19
0.0490196 	2.99178e-05 	-3.54227e-06 	-8.7094e-21
0.0529412 	0.00200473 	-0.000237359 	-5.83597e-19
0.0568627 	0.00209382 	-0.000247908 	-6.09532e-19
0.0607843 	0.000292248 	-3.46022e-05 	-8.50766e-20
0.0647059 	0.00183357 	-0.000262228 	-5.33499e-19
0.0686275 	0.00213945 	-0.000305974 	-6.22499e-19
0.072549 	0.00057628 	-8.24168e-05 	-1.67676e-19
0.0764706 	0.00168545 	-0.000282734 	-4.88543e-19
0.0803922 	0.00214622 	-0.000360028 	-6.22099e-19
0.0843137 	0.000760299 	-0.00012754 	-2.20379e-19
0.0882353 	0.00150477 	-0.000289959 	-4.34915e-19
0.0921569 	0.00211559 	-0.000407659 	-6.11455e-19
0.0960784 	0.0009037 	-0.000174137 	-2.61191e-19
0.1 	0.00135133 	-0.000294315 	-3.87983e-19
0.103922 	0.00208634 	-0.000454398 	-5.99013e-19
0.107843 	0.001025 	-0.00022324 	-2.94288e-19
0.111765 	0.00123077 	-0.000299222 	-3.6096e-19
0.115686 	0.00203657 	-0.000495126 	-5.97285e-19
0.119608 	0.00107427 	-0.000261173 	-3.1506e-19
0.123529 	0.00111607 	-0.000299847 	-3.35102e-19
0.127451 	0.00198306 	-0.000532778 	-5.95419e-19
0.131373 	0.00111255 	-0.000298903 	-3.34047e-19
0.135294 	0.00106292 	-0.000312934 	-3.26311e-19
0.139216 	0.00193417 	-0.000569439 	-5.93782e-19
0.143137 	0.00110129 	-0.000324231 	-3.38092e-19
0.147059 	0.00102523 	-0.000328503 	-3.1529e-19
0.15098 	0.00186305 	-0.000596959 	-5.72948e-19
0.154902 	0.00103297 	-0.000330985 	-3.17672e-19
0.158824 	0.00100865 	-0.000349701 	-3.16243e-19
0.162745 	0.00178254 	-0.000618012 	-5.58882e-19
0.166667 	0.000928151 	-0.000321793 	-2.91005e-19
0.170588 	0.00103479 	-0.000386144 	-3.3085e-19
0.17451 	0.00171182 	-0.000638785 	-5.47314e-19
0.178431 	0.000804058 	-0.000300044 	-2.57079e-19
0.182353 	0.00109191 	-0.00043658 	-3.55758e-19
0.186275 	0.00160349 	-0.000641128 	-5.22439e-19
0.190196 	0.000578075 	-0.000231133 	-1.88344e-19
0.194118 	0.00111901 	-0.000477465 	-3.78925e-19
0.198039 	0.00146491 	-0.000625056 	-4.96056e-19
0.201961 	0.000328144 	-0.000140015 	-1.11118e-19
0.205882 	0.00116973 	-0.000530686 	-4.14876e-19
0.209804 	0.00129966 	-0.000589632 	-4.60958e-19
0.213725 	7.39533e-06 	-3.35513e-06 	-2.62295e-21
0.217647 	0.00119615 	-0.000574793 	-4.60279e-19
0.221569 	0.00109901 	-0.000528113 	-4.229e-19
0.22549 	0.000284411 	-0.000144292 	-1.16892e-19
0.229412 	0.00118533 	-0.000601362 	-4.87165e-19
0.233333 	0.00082704 	-0.000419589 	-3.3991e-19
0.237255 	0.000541444 	-0.000289302 	-2.31219e-19
0.241176 	0.00110645 	-0.000591195 	-4.725e-19
0.245098 	0.000498411 	-0.000266309 	-2.12842e-19
0.24902 	0.000730352 	-0.00040963 	-3.39236e-19
0.252941 	0.000945025 	-0.000530032 	-4.38948e-19
0.256863 	8.08127e-05 	-4.53251e-05 	-3.75361e-20
0.260784 	0.000789991 	-0.000463796 	-3.86282e-19
0.264706 	0.000671945 	-0.000394492 	-3.28561e-19
0.268627 	0.000279355 	-0.000171261 	-1.31739e-19
0.272549 	0.000728557 	-0.000446647 	-3.43576e-19
0.276471 	0.000326238 	-0.000200002 	-1.53848e-19
0.280392 	0.000467722 	-0.000298998 	-1.50132e-19
0.284314 	0.000566426 	-0.000362096 	-1.81814e-19
0.288235 	6.90528e-05 	-4.60621e-05 	2.602e-21
0.292157 	0.000492567 	-0.00032857 	1.85606e-20
0.296078 	0.000292827 	-0.000195332 	1.10341e-20
0.3 	0.000271939 	-0.000189109 	1.01708e-19
0.303922 	0.000378389 	-0.000263136 	1.41522e-19
0.307843 	2.9064e-05 	-2.09828e-05 	-3.09046e-21
0.311765 	0.000307213 	-0.000221793 	-3.26668e-20
0.315686 	0.000167227 	-0.00012073 	-1.77818e-20
0.319608 	0.000178507 	-0.000132793 	-1.10244e-19
0.323529 	0.000208734 	-0.000155279 	-1.28911e-19
0.327451 	5.81124e-05 	-4.38444e-05 	-3.60639e-22
0.331373 	0.000166037 	-0.000125271 	-1.03041e-21
0.335294 	3.34253e-05 	-2.52186e-05 	-2.07434e-22
0.339216 	9.89419e-05 	-7.30237e-05 	-9.4254e-20
0.343137 	6.26661e-05 	-4.62505e-05 	-5.9697e-20
0.347059 	4.16684e-05 	-2.6701e-05 	-7.933e-20
0.35098 	4.57161e-05 	-2.92948e-05 	-8.70361e-20
0.354902 	6.69739e-06 	1.67822e-06 	-2.83732e-20
0.358824 	1.18749e-05 	2.9756e-06 	-5.03077e-20
0.362745 	-5.60992e-06 	9.88402e-06 	-3.15277e-20
0.366667 	-2.06974e-05 	3.64665e-05 	-1.16319e-19
0.370588 	-2.55944e-06 	3.57054e-06 	-2.92692e-21
0.37451 	-4.78682e-05 	6.67784e-05 	-5.47409e-20
0.378431 	-4.7493e-06 	6.62551e-06 	-5.43119e-21
0.382353 	-6.81507e-05 	8.96556e-05 	-1.93468e-19
0.386275 	-7.73476e-06 	1.01755e-05 	-2.19576e-20
0.390196 	-7.99107e-05 	0.000103267 	-3.35005e-19
0.394118 	-2.42165e-06 	3.12945e-06 	-1.01522e-20
0.398039 	-8.26764e-05 	0.000106949 	-1.94257e-19
0.401961 	-1.35841e-05 	1.74316e-05 	-3.12746e-21
0.405882 	-7.45431e-05 	9.56565e-05 	-1.7162e-20
0.409804 	-3.13296e-05 	3.84908e-05 	-4.21031e-21
0.413725 	-5.19979e-05 	6.38834e-05 	-6.98787e-21
0.417647 	-3.36997e-05 	3.5505e-05 	-4.46203e-20
0.421569 	-1.86771e-05 	1.96776e-05 	-2.47295e-20
0.42549 	-1.69107e-05 	4.30949e-06 	-3.29831e-20
0.429412 	2.09554e-06 	-1.06462e-05 	-5.83243e-21
0.433333 	5.2188e-06 	-2.65136e-05 	-1.45253e-20
0.437255 	2.20879e-05 	-5.55519e-05 	-1.33123e-20
0.441176 	4.75516e-06 	-1.06632e-05 	4.54323e-21
0.445098 	2.69342e-05 	-6.03988e-05 	2.57338e-20
0.44902 	3.78606e-05 	-8.2869e-05 	5.15717e-20
0.452941 	2.24733e-05 	-5.02768e-05 	5.59694e-20
0.456863 	6.88027e-06 	-1.53924e-05 	1.71353e-20
0.460784 	2.65745e-05 	-6.30983e-05 	7.54197e-20
0.464706 	3.25035e-05 	-8.11566e-05 	1.08553e-19
0.468627 	3.09321e-05 	-7.66702e-05 	1.1333e-19
0.472549 	2.52751e-05 	-5.73349e-05 	5.74022e-20
0.476471 	1.72117e-05 	-2.90795e-05 	9.31262e-20
0.480392 	7.38088e-06 	4.0542e-06 	7.09701e-20
0.484314 	-9.17281e-07 	2.33942e-05 	2.98171e-20
0.488235 	-4.7921e-06 	2.94885e-05 	7.54838e-21
0.492157 	-6.86029e-06 	4.13344e-05 	1.47412e-20
0.496078 	-2.62348e-06 	1.47469e-05 	5.80541e-21
0.5 	0 	0 	0
