-0.5 	-9.0278e-36 	0 	0
-0.496078 	2.9655e-05 	0.000166806 	1.0937e-18
-0.492157 	8.52832e-05 	0.000379903 	1.86714e-18
-0.488235 	7.30412e-05 	0.000294643 	1.2622e-18
-0.484314 	0.000148351 	0.000498652 	1.39703e-18
-0.480392 	0.000243527 	0.000753027 	1.60089e-18
-0.476471 	0.000280992 	0.000804182 	1.23148e-18
-0.472549 	0.000318293 	0.000846757 	8.36569e-19
-0.468627 	0.000367276 	0.000911406 	4.26164e-19
-0.464706 	0.000395981 	0.000919334 	7.45358e-20
-0.460784 	0.000336103 	0.000732333 	-2.13961e-19
-0.456863 	9.08426e-05 	0.000186155 	-1.12603e-19
-0.452941 	0.000296722 	0.000608045 	-3.67799e-19
-0.44902 	0.000551211 	0.0010647 	-9.97375e-19
-0.445098 	0.000488311 	0.000890336 	-1.08526e-18
-0.441176 	8.62099e-05 	0.000157186 	-1.91599e-19
-0.437255 	0.000620592 	0.00107016 	-1.55465e-18
-0.433333 	0.00058665 	0.000958017 	-1.62552e-18
-0.429412 	0.000238939 	0.000390195 	-6.62064e-19
-0.42549 	0.000786787 	0.00121859 	-2.3118e-18
-0.421569 	0.000378725 	0.000556512 	-1.15499e-18
-0.417647 	0.000683346 	0.00100413 	-2.08398e-18
-0.413725 	0.000754378 	0.00105323 	-2.37093e-18
-0.409804 	0.000454526 	0.000634589 	-1.42853e-18
-0.405882 	0.000940484 	0.00124844 	-2.99702e-18
-0.401961 	0.000171386 	0.000227505 	-5.46151e-19
-0.398039 	0.00102683 	0.0012971 	-3.27684e-18
-0.394118 	3.31236e-05 	3.98208e-05 	-1.05918e-19
-0.390196 	0.00109303 	0.00131403 	-3.49513e-18
-0.386275 	0.000132005 	0.000151104 	-4.253e-19
-0.382353 	0.00116309 	0.00133137 	-3.7473e-18
-0.378431 	0.000122117 	0.000133147 	-3.92064e-19
-0.37451 	0.00123082 	0.00134198 	-3.95161e-18
-0.370588 	6.58102e-05 	7.1754e-05 	-2.11287e-19
-0.366667 	0.00127409 	0.00132346 	-4.01746e-18
-0.362745 	0.000345334 	0.000358716 	-1.08891e-18
-0.358824 	0.00128445 	0.00127116 	-3.99321e-18
-0.354902 	0.000724422 	0.000716927 	-2.25214e-18
-0.35098 	0.00119491 	0.00112625 	-3.64088e-18
-0.347059 	0.00110177 	0.00103847 	-3.3571e-18
-0.343137 	0.000895226 	0.000804088 	-2.68072e-18
-0.339216 	0.00137858 	0.00123823 	-4.1281e-18
-0.335294 	0.000284791 	0.000243525 	-8.2593e-19
-0.331373 	0.00152745 	0.00130612 	-4.4298e-18
-0.327451 	0.000536978 	0.00045917 	-1.5573e-18
-0.323529 	0.00142024 	0.00115589 	-3.97284e-18
-0.319608 	0.00121457 	0.000988505 	-3.39753e-18
-0.315686 	0.000881974 	0.000683085 	-2.39509e-18
-0.311765 	0.00162027 	0.00125489 	-4.40001e-18
-0.307843 	0.000153286 	0.000118719 	-4.16264e-19
-0.303922 	0.00160736 	0.00118296 	-4.24921e-18
-0.3 	0.00115517 	0.000850167 	-3.0538e-18
-0.296078 	0.00102793 	0.000719082 	-2.62299e-18
-0.292157 	0.0017291 	0.00120958 	-4.41216e-18
-0.288235 	0.000242401 	0.00016957 	-6.18539e-19
-0.284314 	0.00168256 	0.00111622 	-4.11171e-18
-0.280392 	0.00138936 	0.000921714 	-3.39522e-18
-0.276471 	0.000834925 	0.000525353 	-1.95852e-18
-0.272549 	0.00186456 	0.00117322 	-4.37377e-18
-0.268627 	0.000714941 	0.000449856 	-1.67706e-18
-0.264706 	0.00151051 	0.000899757 	-3.40785e-18
-0.260784 	0.00177587 	0.00105782 	-4.00654e-18
-0.256863 	0.000161984 	9.12785e-05 	-3.51533e-19
-0.252941 	0.00188607 	0.00106281 	-4.09311e-18
-0.24902 	0.00143686 	0.000809679 	-3.11825e-18
-0.245098 	0.000874375 	0.000465125 	-1.82525e-18
-0.241176 	0.00200848 	0.00106841 	-4.19269e-18
-0.237255 	0.000987776 	0.000525448 	-2.06198e-18
-0.233333 	0.00140436 	0.00070334 	-2.82634e-18
-0.229412 	0.00201275 	0.00100804 	-4.05076e-18
-0.22549 	0.000482944 	0.000241871 	-9.71951e-19
-0.221569 	0.00174664 	0.000822029 	-3.38324e-18
-0.217647 	0.00190103 	0.000894688 	-3.68229e-18
-0.213725 	1.11079e-05 	4.90031e-06 	-2.0699e-20
-0.209804 	0.0019521 	0.000861182 	-3.63764e-18
-0.205882 	0.00175695 	0.000775089 	-3.27398e-18
-0.201961 	0.000469733 	0.000193891 	-8.36604e-19
-0.198039 	0.00209699 	0.000865571 	-3.73478e-18
-0.194118 	0.00160184 	0.000661189 	-2.85291e-18
-0.190196 	0.000791051 	0.000304281 	-1.34645e-18
-0.186275 	0.00219062 	0.000842631 	-3.72867e-18
-0.182353 	0.00148107 	0.000569698 	-2.52093e-18
-0.178431 	0.0010456 	0.000373302 	-1.693e-18
-0.17451 	0.0022536 	0.000804585 	-3.64895e-18
-0.170588 	0.00136505 	0.000487355 	-2.21025e-18
-0.166667 	0.00118816 	0.000391522 	-1.8364e-18
-0.162745 	0.0022819 	0.000751929 	-3.52685e-18
-0.158824 	0.00129121 	0.000425478 	-1.99566e-18
-0.154902 	0.00128353 	0.000388423 	-1.88495e-18
-0.15098 	0.00231496 	0.000700554 	-3.39967e-18
-0.147059 	0.00127391 	0.000385511 	-1.87082e-18
-0.143137 	0.00133179 	0.000368021 	-1.84791e-18
-0.139216 	0.00233899 	0.000646346 	-3.24543e-18
-0.135294 	0.00128539 	0.000355198 	-1.78352e-18
-0.131373 	0.00131215 	0.000328635 	-1.7157e-18
-0.127451 	0.00233884 	0.000585772 	-3.05814e-18
-0.123529 	0.0013163 	0.000329672 	-1.72112e-18
-0.119608 	0.00123786 	0.000277994 	-1.53215e-18
-0.115686 	0.00234671 	0.000527015 	-2.90462e-18
-0.111765 	0.0014182 	0.000318494 	-1.75536e-18
-0.107843 	0.00115528 	0.000230054 	-1.36962e-18
-0.103922 	0.00235129 	0.000468219 	-2.78753e-18
-0.1 	0.0015223 	0.00030314 	-1.80473e-18
-0.0960784 	0.000996067 	0.000173395 	-1.13394e-18
-0.0921569 	0.00233337 	0.000406192 	-2.65635e-18
-0.0882353 	0.00165935 	0.000288858 	-1.88903e-18
-0.0843137 	0.000821183 	0.000122881 	-9.04399e-19
-0.0803922 	0.00231991 	0.000347151 	-2.55501e-18
-0.0764706 	0.00182164 	0.00027259 	-2.00624e-18
-0.072549 	0.000610586 	7.61539e-05 	-6.50328e-19
-0.0686275 	0.00226912 	0.00028301 	-2.41681e-18
-0.0647059 	0.00194458 	0.000242532 	-2.07114e-18
-0.0607843 	0.000303429 	3.02295e-05 	-3.13883e-19
-0.0568627 	0.00217828 	0.000217014 	-2.25333e-18
-0.0529412 	0.0020858 	0.000207801 	-2.15767e-18
-0.0490196 	3.11305e-05 	3.10142e-06 	-3.2203e-20
-0.045098 	0.00208139 	0.00015728 	-2.10545e-18
-0.0411765 	0.00219745 	0.00016605 	-2.22285e-18
-0.0372549 	0.000366216 	2.76731e-05 	-3.70449e-19
-0.0333333 	0.00191221 	9.71129e-05 	-1.89583e-18
-0.0294118 	0.00225314 	0.000114428 	-2.23385e-18
-0.0254902 	0.00066312 	3.36771e-05 	-6.57443e-19
-0.0215686 	0.00170867 	4.61642e-05 	-1.66697e-18
-0.0176471 	0.00230989 	6.24079e-05 	-2.25352e-18
-0.0137255 	0.000998238 	2.697e-05 	-9.73875e-19
-0.00980392 	0.00150994 	3.70503e-06 	-1.45666e-18
-0.00588235 	0.0023268 	5.70939e-06 	-2.2447e-18
-0.00196078 	0.00124914 	3.06507e-06 	-1.20506e-18
0.00196078 	0.00123538 	-2.69559e-05 	-1.1864e-18
0.00588235 	0.00230115 	-5.02108e-05 	-2.2099e-18
0.00980392 	0.00149329 	-3.25834e-05 	-1.43408e-18
0.0137255 	0.000966491 	-4.47113e-05 	-9.28699e-19
0.0176471 	0.00223647 	-0.000103462 	-2.14902e-18
0.0215686 	0.00165445 	-7.65373e-05 	-1.58976e-18
0.0254902 	0.000628281 	-4.40097e-05 	-6.08812e-19
0.0294118 	0.00213389 	-0.000149475 	-2.06777e-18
0.0333333 	0.00181106 	-0.000126861 	-1.75494e-18
0.0372549 	0.000339473 	-3.20222e-05 	-3.32961e-19
0.0411765 	0.00203442 	-0.000191905 	-1.99539e-18
0.045098 	0.00192683 	-0.000181756 	-1.88986e-18
0.0490196 	2.81733e-05 	-3.38012e-06 	-2.81787e-20
0.0529412 	0.00188783 	-0.000226494 	-1.88819e-18
0.0568627 	0.00197172 	-0.00023656 	-1.9721e-18
0.0607843 	0.000275207 	-3.30183e-05 	-2.7526e-19
0.0647059 	0.00171772 	-0.00024675 	-1.76323e-18
0.0686275 	0.00200428 	-0.000287914 	-2.05738e-18
0.072549 	0.000539871 	-7.75523e-05 	-5.54173e-19
0.0764706 	0.00157029 	-0.00026206 	-1.66058e-18
0.0803922 	0.00199958 	-0.000333701 	-2.11454e-18
0.0843137 	0.000708351 	-0.000118214 	-7.49078e-19
0.0882353 	0.00139242 	-0.000266447 	-1.52341e-18
0.0921569 	0.00195762 	-0.000374603 	-2.14179e-18
0.0960784 	0.000836224 	-0.000160016 	-9.14894e-19
0.1 	0.00124079 	-0.000270448 	-1.40444e-18
0.103922 	0.00191567 	-0.00041755 	-2.16834e-18
0.107843 	0.000941147 	-0.000205137 	-1.06528e-18
0.111765 	0.00112033 	-0.000270932 	-1.32151e-18
0.115686 	0.00185383 	-0.000448314 	-2.18671e-18
0.119608 	0.000977871 	-0.00023648 	-1.15346e-18
0.123529 	0.0010055 	-0.000268083 	-1.23964e-18
0.127451 	0.00178661 	-0.000476339 	-2.20262e-18
0.131373 	0.00100234 	-0.00026724 	-1.23574e-18
0.135294 	0.000945342 	-0.000277101 	-1.22277e-18
0.139216 	0.00172022 	-0.000504234 	-2.22505e-18
0.143137 	0.000979471 	-0.000287104 	-1.26691e-18
0.147059 	0.000898238 	-0.000285924 	-1.21593e-18
0.15098 	0.00163229 	-0.000519584 	-2.20959e-18
0.154902 	0.000905024 	-0.000288084 	-1.22511e-18
0.158824 	0.000867745 	-0.000297225 	-1.2386e-18
0.162745 	0.00153353 	-0.000525272 	-2.18892e-18
0.166667 	0.000798494 	-0.000273504 	-1.13975e-18
0.170588 	0.000870286 	-0.000318976 	-1.31402e-18
0.17451 	0.00143969 	-0.000527672 	-2.17374e-18
0.178431 	0.000676236 	-0.000247853 	-1.02103e-18
0.182353 	0.000891776 	-0.000349512 	-1.43155e-18
0.186275 	0.00130959 	-0.000513266 	-2.10227e-18
0.190196 	0.000472122 	-0.000185038 	-7.5789e-19
0.194118 	0.000880429 	-0.00036548 	-1.51438e-18
0.198039 	0.00115258 	-0.000478454 	-1.9825e-18
0.201961 	0.000258182 	-0.000107176 	-4.44086e-19
0.205882 	0.000875962 	-0.000384176 	-1.65488e-18
0.209804 	0.00097326 	-0.000426849 	-1.8387e-18
0.213725 	5.53806e-06 	-2.42886e-06 	-1.04626e-20
0.217647 	0.000838837 	-0.000383786 	-1.76825e-18
0.221569 	0.000770714 	-0.000352618 	-1.62465e-18
0.22549 	0.000181991 	-8.63065e-05 	-4.49104e-19
0.229412 	0.000758476 	-0.000359697 	-1.87171e-18
0.233333 	0.000529212 	-0.000250971 	-1.30595e-18
0.237255 	0.000303345 	-0.0001461 	-9.03275e-19
0.241176 	0.000619891 	-0.000298559 	-1.84586e-18
0.245098 	0.000279235 	-0.000134489 	-8.31484e-19
0.24902 	0.000334445 	-0.000158647 	-1.54093e-18
0.252941 	0.000432749 	-0.000205278 	-1.99386e-18
0.256863 	3.7006e-05 	-1.75541e-05 	-1.70502e-19
0.260784 	0.000256601 	-0.000111341 	-2.43369e-18
0.264706 	0.000218258 	-9.47037e-05 	-2.07003e-18
0.268627 	4.31529e-05 	-1.15181e-05 	-6.97541e-19
0.272549 	0.000112542 	-3.0039e-05 	-1.81918e-18
0.276471 	5.0395e-05 	-1.34511e-05 	-8.14605e-19
0.280392 	-6.01585e-06 	2.14982e-05 	-3.17849e-19
0.284314 	-7.28537e-06 	2.6035e-05 	-3.84925e-19
0.288235 	-9.21857e-06 	7.74945e-06 	3.39458e-20
0.292157 	-6.57579e-05 	5.52784e-05 	2.42142e-19
0.296078 	-3.90924e-05 	3.28625e-05 	1.43951e-19
0.3 	-6.0922e-05 	4.81385e-05 	9.01848e-20
0.303922 	-8.47697e-05 	6.69822e-05 	1.25487e-19
0.307843 	-8.99916e-06 	7.29429e-06 	-2.12293e-20
0.311765 	-9.51232e-05 	7.71023e-05 	-2.24399e-19
0.315686 	-5.17791e-05 	4.19697e-05 	-1.22149e-19
0.319608 	-7.37697e-05 	6.25262e-05 	7.01471e-20
0.323529 	-8.62612e-05 	7.31138e-05 	8.20252e-20
0.327451 	-3.29514e-05 	2.92712e-05 	4.84784e-20
0.331373 	-9.41478e-05 	8.36329e-05 	1.38511e-19
0.335294 	-1.89531e-05 	1.68363e-05 	2.7884e-20
0.339216 	-8.4039e-05 	7.82442e-05 	2.60349e-20
0.343137 	-5.32272e-05 	4.9557e-05 	1.64896e-20
0.347059 	-6.5303e-05 	6.40898e-05 	2.08647e-19
0.35098 	-7.16465e-05 	7.03155e-05 	2.28914e-19
0.354902 	-4.39068e-05 	4.56966e-05 	-3.82331e-20
0.358824 	-7.78499e-05 	8.10234e-05 	-6.77899e-20
0.362745 	-2.13521e-05 	2.36891e-05 	-6.18796e-20
0.366667 	-7.87772e-05 	8.73996e-05 	-2.28301e-19
0.370588 	-4.2285e-06 	4.97978e-06 	-1.42433e-20
0.37451 	-7.90839e-05 	9.31348e-05 	-2.66387e-19
0.378431 	-7.84641e-06 	9.24049e-06 	-2.64299e-20
0.382353 	-7.89821e-05 	9.862e-05 	-7.53517e-19
0.386275 	-8.96406e-06 	1.11929e-05 	-8.55203e-20
0.390196 	-7.96655e-05 	0.0001053 	-2.52699e-19
0.394118 	-2.41422e-06 	3.19107e-06 	-7.6579e-21
0.398039 	-8.12613e-05 	0.000113778 	1.96488e-19
0.401961 	-1.48925e-05 	2.20114e-05 	4.35314e-20
0.405882 	-8.17228e-05 	0.000120788 	2.3888e-19
0.409804 	-4.35264e-05 	6.78289e-05 	1.25133e-19
0.413725 	-7.22409e-05 	0.000112576 	2.07684e-19
0.417647 	-7.22957e-05 	0.000118711 	1.63939e-19
0.421569 	-4.00679e-05 	6.57921e-05 	9.08588e-20
0.42549 	-9.17247e-05 	0.000159007 	3.00046e-19
0.429412 	-3.0882e-05 	5.65616e-05 	9.43144e-20
0.433333 	-7.69097e-05 	0.000140863 	2.34884e-19
0.437255 	-8.89376e-05 	0.000172223 	3.31241e-19
0.441176 	-1.33167e-05 	2.72806e-05 	4.00267e-20
0.445098 	-7.54288e-05 	0.000154523 	2.2672e-19
0.44902 	-9.2755e-05 	0.000201401 	1.92287e-19
0.452941 	-5.40851e-05 	0.000124695 	8.90031e-20
0.456863 	-1.65583e-05 	3.81759e-05 	2.72486e-20
0.460784 	-6.60271e-05 	0.000162042 	5.88143e-20
0.464706 	-8.33479e-05 	0.000218124 	1.01865e-19
0.468627 	-8.24595e-05 	0.000230825 	6.28945e-20
0.472549 	-7.55187e-05 	0.000227017 	6.10954e-20
0.476471 	-7.01044e-05 	0.000227083 	1.10203e-19
0.480392 	-6.33741e-05 	0.000221971 	3.01334e-20
0.484314 	-4.00908e-05 	0.000152571 	-9.82925e-21
0.488235 	-2.0647e-05 	9.40673e-05 	-1.86849e-20
0.492157 	-2.42272e-05 	0.000121489 	-8.15807e-21
0.496078 	-8.38374e-06 	5.07186e-05 	-4.9338e-21
0.5 	0 	0 	0
